257
263
265
267
266
267
268
270
274
279
284
287
288
287
283
278
270
262
253
244
236
232
229
228
230
234
237
245
251
255
258
258
256
252
247
241
236
234
233
238
246
254
263
271
277
278
278
274
268
260
251
242
235
229
227
227
232
235
243
250
255
259
262
263
261
259
255
251
249
249
250
254
258
264
270
275
278
281
280
276
272
267
262
258
256
258
262
268
275
281
290
295
298
298
296
292
286
279
273
271
271
276
281
287
292
298
300
301
301
301
300
298
296
293
291
289
287
285
287
288
288
289
289
287
284
280
274
269
264
260
258
259
263
269
277
286
292
302
308
312
311
306
299
289
279
269
261
256
254
257
262
269
276
282
286
289
289
287
286
284
281
280
280
280
283
286
290
295
298
301
305
305
303
298
292
285
280
274
270
270
269
271
273
277
279
280
280
277
274
271
266
261
259
259
263
269
277
286
296
304
313
317
318
315
311
303
295
286
281
278
281
286
292
300
308
316
321
324
322
318
313
305
299
294
290
288
286
284
283
280
278
275
273
272
269
270
270
271
272
275
279
282
285
287
288
288
285
281
275
268
262
256
252
250
252
256
263
270
276
282
287
291
291
293
290
287
282
277
269
268
267
269
274
281
288
296
302
305
304
305
301
296
289
282
277
272
269
269
270
273
278
284
290
296
300
301
301
299
295
290
286
287
289
292
298
303
307
310
312
311
309
307
306
305
305
308
314
322
333
345
358
371
383
391
396
398
395
390
381
369
359
351
346
343
344
348
354
362
372
379
386
390
391
389
382
373
366
359
352
347
346
346
349
354
358
362
364
362
360
358
354
351
351
352
355
361
367
372
377
381
380
376
370
357
342
323
301
281
261
242
225
214
204
200
199
199
202
206
210
214
220
228
240
255
275
300
327
357
388
419
446
468
485
496
498
490
479
459
436
412
389
369
351
340
330
322
319
316
314
311
308
304
301
297
295
295
298
300
305
307
309
309
308
306
303
298
291
284
277
270
265
262
263
264
271
275
278
280
280
279
276
270
264
257
251
245
241
239
242
246
251
259
266
272
281
285
285
282
276
266
257
248
240
238
238
242
250
259
269
278
287
293
293
295
292
287
280
276
272
273
274
278
283
288
292
295
294
290
284
276
266
258
250
245
244
245
248
251
254
258
259
259
257
253
249
244
239
234
235
238
241
249
258
264
267
270
266
263
259
252
246
239
232
227
223
221
223
227
232
239
245
249
252
252
250
247
242
237
231
228
225
226
229
231
236
241
246
250
253
253
251
246
240
232
227
221
222
224
228
235
242
248
252
254
254
251
247
241
235
230
228
227
233
240
249
261
273
283
296
301
307
307
303
299
294
291
289
292
295
299
302
309
312
313
315
313
311
306
303
299
297
297
299
305
313
323
334
344
350
353
354
350
345
337
327
319
314
312
313
318
326
335
345
352
357
361
364
363
360
356
350
345
341
338
336
337
337
343
347
351
354
354
351
347
340
333
326
323
323
324
328
334
343
351
358
364
367
370
368
365
359
352
345
339
338
338
343
350
357
365
371
375
378
378
377
373
368
364
360
356
355
356
358
362
366
369
371
372
372
369
364
361
357
353
349
351
353
357
363
368
374
378
380
381
379
374
369
362
358
355
352
353
356
361
366
371
375
379
381
380
375
370
364
357
351
347
345
346
350
355
360
363
364
364
362
359
352
348
342
336
332
329
328
330
332
337
341
348
354
359
362
362
361
358
355
352
350
351
354
358
360
363
365
362
361
358
352
346
340
333
327
323
321
322
327
333
341
350
359
368
374
381
383
382
377
370
360
350
342
337
335
336
340
347
354
362
369
372
372
370
364
358
354
351
350
351
353
356
358
361
363
362
364
362
361
359
357
354
355
356
361
364
369
372
376
378
379
378
374
369
363
354
345
340
336
336
340
347
355
365
376
385
390
394
395
394
390
384
374
370
365
361
360
361
363
366
368
369
369
366
364
360
355
350
347
345
345
347
349
352
359
364
369
373
377
380
380
379
377
376
375
375
375
379
382
387
391
395
397
398
397
395
391
384
378
370
365
361
359
358
359
364
366
371
375
379
380
381
381
380
377
380
380
381
383
383
387
388
391
392
392
392
388
385
379
374
369
367
367
369
375
382
391
398
404
408
410
407
401
393
383
372
364
358
353
354
355
362
368
374
377
380
379
375
370
362
355
350
343
342
344
347
354
361
368
373
378
381
381
380
377
372
368
365
362
361
362
365
368
372
376
380
383
384
383
378
375
370
366
362
360
360
364
368
374
381
387
392
396
395
392
387
380
371
363
353
346
342
340
342
345
350
356
363
368
371
372
371
368
366
362
360
361
364
368
372
376
378
379
379
377
373
370
368
365
365
367
370
376
382
388
392
395
397
395
390
382
374
365
357
353
350
351
354
359
365
370
375
378
380
381
379
375
372
367
360
360
359
362
367
373
380
387
392
396
398
397
394
388
381
374
369
364
362
363
364
364
362
359
351
340
326
309
289
271
251
233
217
205
196
192
190
192
198
208
221
237
255
276
297
321
347
372
399
426
448
470
484
495
499
498
494
485
475
462
449
434
420
408
398
392
388
386
387
391
395
398
399
401
399
396
389
381
372
365
360
358
359
360
362
366
368
369
368
365
362
357
350
344
341
338
340
344
350
359
369
378
382
387
386
382
376
367
355
344
336
331
328
329
333
339
347
351
354
357
356
351
348
342
335
330
325
323
324
326
329
334
337
340
341
338
333
327
319
310
302
298
296
298
301
306
313
319
324
326
328
328
326
323
319
314
309
306
305
306
309
313
318
321
322
322
319
314
307
297
287
279
273
270
271
274
280
287
292
297
301
303
305
305
304
302
301
300
300
300
301
301
301
301
300
300
299
298
296
294
289
285
282
281
281
281
283
283
284
286
286
286
286
283
280
277
272
268
265
265
266
270
276
283
289
296
299
303
303
300
296
293
288
286
285
287
291
297
304
311
318
324
330
335
337
338
338
338
338
341
343
347
352
358
363
368
370
372
372
371
369
366
361
356
351
349
348
351
357
363
370
377
382
387
389
388
384
378
370
362
356
352
352
355
357
365
370
374
377
380
381
380
378
375
371
367
363
362
364
365
369
371
375
376
380
381
382
381
379
376
373
370
368
369
373
377
381
385
387
388
388
384
377
370
363
356
349
346
346
350
355
366
373
381
388
392
392
389
384
374
366
356
348
343
343
346
351
358
364
372
378
382
383
380
377
369
363
356
350
346
345
346
348
351
355
358
360
360
358
356
353
347
345
342
342
344
348
353
358
362
364
365
365
362
356
350
343
335
330
329
331
337
346
354
363
372
378
381
380
381
378
374
369
363
359
357
358
361
365
369
375
380
383
383
382
378
372
366
358
353
349
349
352
358
365
372
379
382
383
382
375
371
365
358
353
350
349
351
353
359
365
369
371
371
369
365
361
354
349
343
338
335
335
336
339
344
352
358
364
368
371
371
368
364
357
351
347
344
345
349
354
361
369
376
381
385
386
385
380
374
366
359
352
350
350
354
360
368
375
381
384
385
382
376
369
360
351
345
339
336
336
339
345
351
357
363
364
369
368
367
363
358
354
352
351
352
359
365
370
376
379
381
383
383
381
377
371
364
358
352
348
348
350
352
360
365
370
376
378
379
377
373
368
361
355
350
348
350
354
360
366
371
374
375
374
371
365
357
350
343
338
335
336
338
344
350
357
363
367
368
365
359
351
342
334
328
324
326
330
336
341
347
350
355
357
357
354
351
348
344
343
343
347
353
359
364
366
365
363
363
359
354
349
343
337
332
329
328
329
332
334
336
338
338
336
336
331
327
322
317
312
315
318
325
334
343
351
356
362
364
363
361
357
349
344
335
330
325
324
326
330
335
337
344
347
349
348
345
340
337
331
326
324
324
327
332
339
345
352
358
362
365
366
365
363
359
353
346
340
337
336
336
337
339
344
349
353
356
356
354
351
345
337
330
324
321
322
323
326
331
337
344
352
358
362
365
366
365
362
358
355
353
352
352
353
354
356
358
360
363
364
366
367
366
365
363
362
362
363
365
367
367
369
369
366
364
359
352
344
337
332
329
330
334
339
346
354
362
367
372
376
376
375
369
361
354
346
339
335
333
333
339
345
350
355
360
362
363
362
359
357
356
354
353
351
346
340
330
317
301
284
266
247
230
210
192
176
163
152
146
146
151
163
182
204
230
258
287
315
339
362
381
399
414
426
437
444
450
453
452
449
443
434
420
405
386
368
349
334
321
314
311
313
318
324
330
334
340
341
341
337
332
328
324
320
319
319
320
321
323
324
325
326
327
326
326
324
323
322
322
322
323
325
329
333
337
338
341
341
339
333
327
318
311
305
301
301
304
309
317
323
331
337
342
342
341
339
332
324
318
309
304
301
301
301
304
308
312
317
321
323
323
321
319
317
316
315
315
317
319
322
325
328
332
334
333
330
325
315
305
293
282
273
267
266
267
271
278
283
289
293
293
292
289
283
278
273
266
267
269
273
276
281
284
286
285
281
274
268
261
255
249
245
245
248
252
256
261
265
268
269
269
266
264
258
250
243
236
231
230
232
236
243
251
259
267
273
275
275
272
266
259
251
245
241
240
241
246
252
260
268
274
280
283
284
286
285
283
282
282
282
287
290
295
300
306
311
316
319
321
323
324
323
323
323
325
328
332
336
341
347
352
355
356
355
353
348
342
336
332
329
329
332
333
339
343
346
346
349
349
344
343
339
334
332
332
332
333
336
339
342
347
350
352
354
354
351
347
343
338
336
336
338
340
346
351
358
362
366
369
369
367
363
355
348
341
338
336
338
341
345
351
356
360
361
361
361
359
358
354
351
348
347
348
351
356
363
370
376
379
380
377
372
366
357
350
344
341
342
344
350
356
363
371
376
381
385
386
385
381
374
367
360
353
348
347
347
350
354
356
358
360
359
357
355
350
349
346
344
341
340
339
337
336
336
336
337
340
342
343
342
339
336
333
332
332
335
340
347
352
359
364
367
368
367
365
360
354
348
340
336
330
331
329
331
334
338
342
346
349
351
351
347
344
338
331
325
321
319
319
320
323
327
331
334
336
337
338
337
335
334
333
334
337
341
346
351
355
358
360
359
357
355
351
348
346
343
341
344
344
344
344
342
339
337
334
329
325
320
314
309
305
303
305
305
312
319
328
336
344
348
348
347
342
336
330
322
319
316
320
321
327
333
338
342
346
347
346
346
344
339
338
336
335
335
338
340
342
346
351
355
358
361
362
364
364
363
362
361
362
361
363
364
364
363
361
357
351
345
338
334
329
327
327
327
330
334
338
342
346
350
353
356
357
358
357
355
349
345
341
339
337
336
336
338
340
341
343
344
344
342
340
336
332
329
326
324
324
322
323
324
324
324
322
319
314
311
306
303
302
303
308
313
320
327
334
340
344
346
346
344
338
331
323
315
309
304
304
307
313
321
331
338
342
344
341
338
330
324
316
309
308
307
310
315
322
335
345
354
361
364
364
359
352
344
336
332
330
331
334
338
345
351
356
359
361
361
359
356
352
346
341
337
334
333
332
336
339
342
344
346
346
342
336
326
317
305
300
294
291
294
297
307
316
323
328
330
329
324
317
308
300
294
289
288
289
292
296
301
305
308
309
308
304
297
290
283
276
271
270
271
275
282
289
299
308
319
329
337
344
347
347
344
338
331
324
319
315
318
322
326
331
336
338
338
336
333
328
323
321
318
320
323
327
330
333
334
335
334
331
328
324
320
318
318
319
323
329
335
342
347
354
356
358
355
349
341
332
321
313
308
305
307
314
322
332
343
353
361
367
368
365
362
357
351
346
342
342
341
341
341
338
331
320
303
283
258
232
206
180
158
139
128
123
125
132
145
162
181
203
222
241
257
274
290
306
323
340
360
380
399
415
429
439
443
441
435
423
406
387
368
349
334
322
318
317
319
323
329
332
334
332
327
322
316
308
301
295
291
291
293
299
304
312
319
323
325
325
320
312
303
292
278
269
260
257
258
262
270
280
290
298
303
304
304
302
298
294
292
292
292
295
297
300
302
305
305
303
300
296
292
288
284
280
278
279
281
284
287
292
296
300
304
305
305
304
299
293
286
277
270
265
262
262
263
267
271
275
277
278
276
272
266
259
252
248
246
249
255
263
271
278
281
283
282
277
269
263
253
243
235
228
223
224
225
230
236
240
245
248
250
250
248
244
237
229
223
219
217
217
219
222
226
230
234
236
238
234
232
225
219
214
211
210
211
214
217
221
224
225
224
222
220
216
212
207
204
202
200
200
203
206
210
216
221
225
230
233
234
233
231
231
231
232
235
240
247
255
263
271
277
283
287
287
288
285
281
277
275
275
276
282
288
295
303
307
311
313
314
311
308
303
298
295
293
294
298
304
310
318
325
331
336
338
337
333
327
318
307
301
295
293
294
296
302
308
316
321
328
332
334
334
331
326
322
319
316
318
322
326
330
334
334
333
330
326
321
315
310
304
299
295
296
299
303
308
312
317
321
323
323
321
316
308
300
292
285
282
282
284
288
295
300
308
314
319
320
321
320
316
312
309
305
306
308
312
318
324
329
335
339
340
338
336
332
325
319
311
304
300
297
296
297
299
301
304
307
307
307
307
305
306
309
312
317
322
327
332
336
339
342
343
342
340
336
331
325
320
317
317
318
321
324
329
333
337
340
341
339
335
330
323
315
307
302
299
298
298
298
300
303
307
311
314
317
319
318
316
313
311
311
312
316
320
325
329
332
334
332
329
326
321
316
312
308
306
307
310
314
320
327
332
336
338
337
336
335
332
330
330
332
334
337
339
345
348
351
352
349
345
338
330
321
309
299
291
285
284
286
290
296
304
307
313
316
317
317
315
311
307
304
303
304
307
314
321
330
338
344
350
355
357
357
356
352
347
342
337
332
329
326
327
329
332
336
339
343
344
341
335
326
319
311
306
305
307
311
318
324
329
333
333
332
328
322
317
312
311
312
316
321
330
339
345
350
349
349
342
333
322
311
302
296
293
293
301
313
323
337
348
353
355
354
348
339
331
321
313
309
307
309
314
325
337
348
357
364
368
366
359
348
336
324
314
308
307
311
319
328
337
345
350
354
355
351
345
336
326
315
308
303
301
304
309
319
331
340
349
355
358
355
349
339
329
318
310
305
305
309
315
325
334
340
346
349
349
347
342
336
329
325
320
319
321
325
330
336
343
346
348
345
344
339
333
324
319
316
315
317
322
327
331
335
338
340
340
337
330
323
313
302
292
285
282
284
287
294
302
310
317
321
322
320
315
308
300
293
290
290
297
306
320
334
348
358
362
361
354
343
329
314
300
288
281
279
282
290
301
316
329
341
351
356
360
360
357
352
347
342
339
340
342
346
352
357
361
362
361
357
351
343
333
322
314
308
307
309
315
323
332
338
347
351
352
351
348
343
336
328
321
316
313
314
316
321
328
335
341
349
352
355
356
355
353
352
352
352
354
354
356
357
358
356
354
349
342
338
335
329
324
320
316
310
308
302
297
290
279
266
249
229
208
187
167
149
138
131
132
141
156
177
203
232
264
296
327
356
379
397
408
415
418
420
421
422
423
426
429
431
433
430
428
421
411
397
382
369
355
344
337
333
332
333
335
337
337
337
335
331
326
320
318
316
315
316
320
324
329
334
336
339
340
340
337
330
324
317
312
309
309
311
314
319
324
328
332
334
336
334
331
325
318
312
308
306
307
312
318
325
332
335
336
335
334
328
322
315
309
304
301
301
302
305
310
315
322
328
335
339
339
338
334
327
318
313
307
304
306
308
312
315
317
318
317
314
309
303
295
289
283
278
279
281
285
289
295
300
303
308
308
308
305
301
296
289
283
277
274
274
275
279
285
290
295
298
298
295
290
284
276
270
265
263
264
266
270
275
279
283
284
284
278
271
265
257
250
245
241
240
241
242
244
246
247
249
250
249
247
244
240
234
229
225
223
225
228
234
242
250
257
264
270
274
277
278
277
277
279
282
290
300
312
323
334
342
348
350
349
345
340
333
325
319
315
315
318
323
330
341
352
364
373
382
386
387
384
378
370
362
356
353
354
355
358
361
364
367
367
367
364
361
356
351
345
343
342
345
348
354
361
368
374
379
382
385
384
381
375
368
361
355
352
352
352
355
359
363
367
370
372
373
372
368
363
358
353
351
350
351
353
356
359
362
365
367
367
365
363
358
356
354
354
354
357
360
364
369
372
376
379
380
380
380
376
371
365
359
354
352
351
353
356
360
365
368
373
374
371
368
360
349
343
335
330
328
328
331
336
341
348
353
356
357
355
350
344
340
335
336
337
340
344
350
355
358
361
363
363
363
362
360
358
357
356
356
357
357
357
357
356
356
356
356
356
357
355
354
352
352
351
354
357
361
365
369
372
376
380
380
379
376
370
364
357
351
346
345
344
344
347
349
352
354
355
354
350
344
337
331
328
326
329
334
337
340
342
341
339
337
335
330
328
325
324
324
324
326
330
334
339
344
349
352
356
357
357
357
353
352
353
353
354
357
361
363
365
365
364
360
355
348
340
331
322
316
312
312
314
324
334
345
357
367
375
380
381
380
375
370
363
356
349
345
344
345
346
349
351
353
353
353
353
352
352
352
350
350
351
353
357
358
363
366
367
366
365
360
356
349
344
338
333
329
328
330
333
337
342
348
351
353
353
351
347
340
333
325
318
313
311
313
317
322
328
337
344
349
351
350
346
339
332
325
319
316
316
319
324
332
341
350
358
364
367
366
361
353
343
335
328
324
325
329
337
347
357
366
374
378
379
376
368
359
348
338
330
326
325
326
330
336
342
348
353
354
353
351
344
336
329
324
320
321
320
325
328
329
331
333
333
333
331
329
324
321
320
319
322
325
326
328
328
327
323
319
313
306
298
290
285
281
279
280
284
290
298
308
317
325
331
335
336
335
329
328
326
324
322
321
323
326
330
335
340
342
343
342
339
333
324
315
308
303
303
306
310
321
331
340
347
350
355
356
355
351
347
342
337
333
331
333
337
343
351
357
362
363
364
361
356
348
340
333
327
325
326
332
340
349
356
362
365
366
366
362
356
349
343
336
332
330
333
338
345
352
359
365
370
369
366
361
355
349
343
337
336
337
339
343
349
352
355
357
358
355
353
350
345
341
337
334
334
334
334
334
332
330
324
316
304
289
272
252
233
215
199
185
175
166
161
159
160
165
174
185
199
218
239
261
285
310
337
364
391
417
440
457
471
479
482
477
468
456
441
425
409
394
381
374
366
363
361
360
359
357
355
348
343
338
331
325
322
322
323
328
334
339
350
357
364
367
366
364
360
350
341
331
324
319
318
318
320
323
326
330
333
334
333
331
326
321
315
313
313
315
320
324
329
335
339
342
344
343
341
337
332
326
319
315
313
313
313
315
315
315
316
316
316
314
313
312
309
305
301
299
296
295
294
295
297
299
302
304
304
304
304
301
298
296
296
297
300
302
307
312
314
315
313
308
301
293
283
274
266
262
261
264
270
277
285
295
302
305
310
310
307
301
294
283
273
264
256
252
251
252
255
258
262
265
267
266
264
260
255
250
247
245
244
248
251
256
261
265
269
271
271
269
268
264
261
259
260
262
266
270
273
275
275
273
271
268
263
261
259
257
256
258
260
264
270
279
290
301
312
323
331
335
336
336
328
321
315
309
306
307
310
315
322
328
334
339
343
346
348
349
349
350
353
356
359
364
369
372
374
374
373
371
368
363
358
353
349
347
346
346
352
358
365
373
379
384
387
390
389
385
380
372
364
357
351
347
347
348
350
353
354
356
357
356
355
353
350
347
346
345
345
348
353
360
368
375
384
394
402
408
413
415
415
414
412
408
408
409
411
415
421
426
432
437
439
440
440
436
435
432
427
422
420
421
422
424
427
430
434
435
435
435
435
432
429
426
422
419
420
420
423
427
429
431
432
432
430
428
423
418
413
408
405
406
408
412
417
421
428
431
430
426
419
412
402
393
387
384
384
389
394
402
410
416
423
426
428
426
425
420
412
404
394
385
377
370
364
357
349
343
337
331
326
321
317
312
309
305
305
305
307
310
312
316
319
321
322
321
321
318
315
311
308
306
308
312
316
326
335
344
351
356
357
356
351
344
335
324
315
310
307
308
313
319
327
333
341
346
349
350
350
347
343
338
334
333
334
335
339
345
351
354
355
352
348
340
332
320
308
301
295
291
291
293
298
306
316
325
333
341
345
347
343
342
340
338
340
343
349
359
371
381
392
400
406
410
410
409
405
400
397
392
387
387
388
390
395
400
404
409
412
413
412
407
400
393
385
380
378
380
385
394
403
411
416
419
417
413
406
398
391
386
383
385
390
396
406
415
421
425
428
428
425
417
412
402
394
386
381
379
380
385
391
398
403
408
411
411
409
405
399
394
390
383
380
378
380
384
389
392
397
400
403
403
401
398
394
391
387
387
388
390
393
397
399
399
397
393
383
370
356
341
330
320
313
312
315
319
325
331
335
338
339
337
334
328
321
312
305
297
291
288
287
288
290
293
295
297
297
294
291
285
280
274
269
266
265
267
272
277
283
288
294
298
300
300
299
293
291
287
282
278
276
276
276
278
280
283
285
287
288
290
291
290
290
289
287
286
287
287
291
294
296
296
299
298
297
294
291
288
285
282
282
285
287
291
294
298
302
305
308
308
309
309
306
301
297
292
291
291
294
299
307
314
321
325
328
325
322
316
310
304
300
297
298
300
302
304
306
307
307
306
304
301
298
292
288
285
283
284
289
296
303
312
321
329
333
336
334
328
319
305
287
268
249
231
216
203
193
186
179
173
165
158
151
145
141
140
143
155
172
197
226
259
292
328
359
385
404
418
425
426
421
414
406
397
390
383
377
373
369
366
362
356
349
341
332
320
309
300
291
286
285
286
289
295
300
305
310
314
317
318
318
316
315
314
313
313
313
314
314
315
314
311
311
309
307
302
298
292
286
284
283
284
288
294
303
309
315
318
318
316
310
301
293
284
277
272
270
272
276
283
292
299
305
309
313
313
310
305
299
292
286
282
281
282
286
291
295
300
303
303
303
300
293
286
280
274
269
268
268
268
270
271
272
274
275
274
271
266
258
250
243
237
234
235
239
246
254
263
269
273
273
270
263
256
247
240
233
229
226
227
229
233
237
241
245
248
248
246
242
236
230
224
219
217
218
221
226
233
239
245
249
252
251
249
244
239
234
230
227
226
227
230
234
239
243
247
250
249
250
247
242
235
230
224
223
225
232
241
252
265
277
287
295
299
302
300
299
295
291
287
285
287
289
295
300
305
314
321
326
330
332
330
328
325
321
320
323
327
331
338
346
353
358
361
360
360
358
354
351
349
346
344
348
349
351
354
356
357
357
353
353
350
345
339
333
328
325
326
327
330
333
339
344
348
350
351
352
350
347
341
336
333
332
335
337
343
350
356
360
362
362
360
357
353
350
346
342
341
341
341
344
349
351
353
354
352
351
349
346
344
341
340
340
342
344
347
350
354
356
357
356
352
346
339
332
324
319
315
316
318
321
327
334
340
345
350
353
353
351
345
338
331
326
323
324
331
339
348
360
368
373
374
371
365
355
347
335
326
320
317
319
322
330
339
349
360
366
370
371
365
357
347
337
329
322
319
320
324
332
340
347
352
359
361
362
359
353
347
341
336
333
332
332
333
339
344
348
352
355
357
356
353
348
341
337
332
329
329
330
335
340
346
352
357
360
360
359
354
348
342
335
330
327
327
327
329
332
334
336
337
336
335
332
329
326
324
324
327
332
338
344
350
355
359
363
364
363
359
354
347
341
334
330
327
327
330
336
339
346
350
353
353
352
349
344
339
335
330
328
325
327
328
330
331
333
334
333
332
329
326
323
321
320
322
326
332
339
347
354
359
366
368
368
365
361
355
350
346
343
342
345
347
351
354
356
358
359
357
355
351
344
338
330
326
324
325
326
334
341
349
356
367
373
377
376
372
363
351
342
333
327
324
323
325
329
333
337
341
342
343
343
341
338
334
329
325
323
321
323
324
327
331
336
339
341
341
342
341
339
338
338
340
343
347
352
357
361
363
363
360
357
352
347
342
338
334
333
331
335
338
343
347
350
354
354
353
350
346
341
335
331
327
326
327
329
333
337
341
344
346
343
339
335
327
319
312
305
302
303
305
312
319
328
336
342
345
345
342
337
330
322
316
311
309
309
311
316
321
324
328
330
331
329
328
325
322
320
318
318
320
320
322
325
327
329
331
333
333
332
330
325
320
315
313
309
308
310
313
318
323
330
336
339
345
346
345
342
338
332
327
322
317
314
313
313
313
314
316
317
318
321
321
320
320
318
321
323
327
332
339
345
352
358
359
360
357
352
342
336
329
323
320
319
322
328
336
343
349
352
353
352
350
345
339
336
333
332
333
334
334
332
326
316
303
288
269
249
226
205
186
170
159
155
156
164
176
192
212
235
260
287
312
338
362
385
406
424
441
456
468
475
478
476
470
461
449
434
419
404
389
376
365
356
350
347
345
344
344
343
342
342
340
337
334
328
322
316
309
305
306
309
315
323
330
339
347
351
355
356
355
352
348
343
337
333
330
328
327
327
326
325
326
324
322
321
319
318
318
319
321
326
332
338
344
347
348
348
341
336
328
318
309
301
295
293
296
301
308
316
324
331
337
341
342
340
338
333
326
319
314
310
309
309
311
314
317
322
325
327
326
324
319
312
305
298
294
292
291
292
294
296
298
300
301
299
295
291
285
278
273
267
265
266
269
273
279
284
288
290
288
285
280
275
270
266
263
263
266
270
276
281
285
287
289
288
285
279
270
260
247
235
226
222
221
225
232
241
250
257
262
265
265
263
258
253
246
240
236
233
232
235
239
246
253
262
269
276
282
286
287
287
287
286
288
291
296
302
309
316
321
326
329
331
332
331
330
327
324
324
326
329
332
337
341
344
344
347
345
347
346
341
339
337
335
335
337
340
345
352
358
364
369
373
375
375
371
366
362
357
352
351
350
351
355
360
366
371
374
380
382
382
380
377
375
371
368
368
366
368
371
373
375
377
377
376
374
370
366
361
357
353
351
348
348
348
348
347
347
348
350
350
348
346
342
340
340
340
342
344
350
355
361
366
371
372
371
369
361
352
344
336
330
328
329
333
339
345
349
355
358
359
359
357
351
350
348
347
347
350
354
361
368
374
378
382
381
379
374
367
359
352
345
338
336
335
339
342
350
356
362
368
371
372
371
368
362
356
350
343
344
344
345
348
351
353
355
356
355
352
347
342
336
331
325
325
325
327
330
335
340
345
350
352
351
350
346
340
336
334
334
337
342
346
354
361
367
373
376
377
377
375
372
368
364
360
357
357
356
357
358
357
359
356
353
346
340
334
329
326
325
327
333
340
348
357
363
368
371
370
365
363
357
350
343
339
336
335
337
340
343
351
356
360
362
363
362
359
354
349
343
338
336
336
337
341
345
350
354
357
358
358
357
356
352
349
344
341
342
345
349
355
362
369
374
379
380
379
377
372
366
359
352
346
345
344
346
351
357
362
367
369
369
368
363
355
350
344
339
337
339
341
346
353
358
364
368
368
367
365
361
356
351
349
348
349
352
355
359
362
365
366
366
363
358
353
346
339
334
331
331
332
335
339
343
345
346
345
346
344
338
333
325
319
315
312
313
315
320
328
334
340
345
348
348
344
339
333
325
319
314
314
315
323
332
344
354
363
369
371
370
367
359
352
345
340
337
337
340
344
350
355
359
361
362
361
357
349
341
332
323
318
314
315
319
325
333
340
344
348
348
346
341
333
324
315
306
298
295
294
297
304
311
319
325
329
333
334
333
328
322
316
311
308
309
313
318
325
332
338
343
347
349
349
347
345
343
341
342
344
349
356
365
374
383
390
393
391
384
374
361
349
340
335
335
342
351
360
368
374
374
373
367
358
348
337
326
316
309
306
306
308
316
323
329
335
341
343
345
344
343
340
336
333
331
330
332
336
342
348
357
362
365
365
361
356
349
342
336
329
326
324
323
326
328
336
342
348
351
349
342
332
317
295
275
252
230
208
191
176
164
155
151
148
147
149
152
157
164
176
191
213
239
270
304
338
375
407
434
453
464
469
466
460
450
438
427
417
411
406
403
403
400
397
392
384
373
365
354
342
331
323
318
317
319
322
326
330
333
332
333
330
327
322
317
310
305
299
300
301
303
307
313
319
324
326
326
324
322
315
311
305
300
296
294
294
296
300
304
306
308
309
307
304
300
296
290
285
282
278
277
278
281
285
288
296
299
304
308
309
307
300
296
291
286
284
283
284
288
292
296
300
304
307
305
305
297
291
283
276
270
267
266
268
272
277
282
286
287
286
283
276
269
261
253
247
245
245
251
259
269
277
285
287
286
281
272
259
247
235
225
221
220
224
232
240
253
263
271
275
275
272
264
254
245
236
228
223
223
224
227
229
235
239
243
246
247
245
241
235
227
223
219
219
222
228
237
246
257
266
274
276
275
270
263
255
248
243
241
245
252
261
272
282
292
298
302
305
304
300
298
296
294
293
296
300
306
314
320
327
333
336
337
336
333
330
326
322
320
320
320
326
329
331
335
337
337
338
334
332
328
323
320
315
313
313
315
318
323
328
335
341
342
343
342
338
334
330
326
324
324
328
333
340
347
353
358
361
362
358
354
346
340
333
325
323
324
328
334
342
349
356
361
361
360
358
355
351
349
346
345
347
348
350
351
350
351
350
348
343
340
336
332
326
322
319
317
318
320
323
327
330
334
337
338
337
335
331
327
321
318
316
316
317
319
322
326
329
330
334
336
334
336
335
334
333
332
332
336
339
342
346
349
350
349
347
342
339
334
328
322
317
315
314
316
319
325
330
334
337
338
337
336
334
330
327
326
325
327
332
340
348
359
368
375
378
379
377
373
365
356
347
338
331
327
325
324
327
329
334
338
342
343
348
349
349
347
344
341
338
338
336
338
340
345
348
350
351
350
347
342
335
330
326
323
321
323
327
333
340
349
357
363
365
366
363
356
347
338
330
324
323
324
328
335
342
347
350
354
355
352
348
342
337
331
331
333
336
341
347
353
357
359
359
356
354
349
345
340
336
333
333
334
337
342
348
353
358
363
365
365
364
359
352
344
337
331
328
328
330
336
343
349
355
360
361
358
354
346
336
327
319
314
313
315
321
329
336
345
352
357
360
359
353
347
339
329
323
320
320
323
328
334
339
345
348
348
346
341
334
326
319
314
313
312
316
322
329
336
342
347
349
349
344
337
333
328
323
320
321
323
327
333
341
345
352
356
354
348
342
332
320
310
302
298
299
304
311
321
330
337
340
345
345
340
334
325
317
308
301
296
295
295
298
302
307
313
319
323
328
330
330
328
326
321
317
320
321
323
325
327
329
331
333
331
329
326
323
318
313
308
305
305
306
309
313
316
323
327
330
331
331
329
327
326
325
326
329
332
337
341
346
351
355
357
357
354
349
343
338
334
330
329
329
330
333
337
343
349
352
358
359
358
354
348
341
334
329
327
327
327
330
332
333
334
333
331
329
326
321
318
317
317
321
329
339
351
365
377
386
390
390
385
375
362
346
331
317
308
301
296
291
288
283
277
268
256
242
226
208
190
173
158
147
143
147
157
175
198
225
255
286
316
341
368
388
402
414
421
429
435
439
441
443
441
438
432
424
414
404
391
377
364
351
340
332
328
326
328
334
339
345
350
352
354
353
348
341
333
326
318
312
310
310
312
315
318
320
323
324
324
322
319
316
312
310
309
310
312
317
323
328
332
336
337
337
335
330
324
320
311
308
305
302
301
305
307
310
313
315
316
316
314
310
306
300
293
290
289
288
291
296
301
307
313
316
320
321
318
314
310
303
297
293
290
290
289
289
290
291
291
291
290
288
285
281
278
274
271
270
270
271
270
274
277
281
283
285
283
280
274
268
261
256
254
253
255
259
263
266
272
275
276
276
273
268
262
256
251
248
248
251
255
260
266
270
274
274
272
269
262
256
248
240
234
232
233
237
244
250
257
265
270
274
272
270
264
257
251
245
243
246
250
255
265
273
280
287
291
294
295
293
293
290
288
286
286
288
292
299
307
315
323
332
336
338
336
332
325
319
313
309
308
308
311
313
318
321
324
324
323
323
322
321
320
321
323
326
331
337
342
347
352
355
355
354
351
345
339
332
326
322
321
323
327
333
340
347
354
360
362
363
361
356
353
349
346
344
346
348
351
355
358
362
365
366
366
364
362
358
356
353
353
354
357
359
362
366
368
370
369
369
366
362
354
346
336
328
322
319
317
317
319
323
327
330
331
330
329
328
325
322
321
321
323
326
328
331
334
337
339
338
338
338
335
330
327
323
321
318
321
325
331
339
347
354
360
363
361
357
352
343
335
327
322
319
321
326
334
343
351
356
359
359
357
354
350
345
342
337
336
335
336
338
343
347
352
357
362
366
369
371
368
365
361
357
353
352
352
354
355
354
353
350
347
344
341
336
332
328
324
322
321
321
322
326
329
332
336
340
343
345
342
342
338
334
329
326
324
324
328
333
338
344
348
353
354
352
349
344
339
336
335
335
337
342
347
352
356
361
361
362
360
356
351
347
343
339
338
341
343
351
356
361
363
367
367
364
356
351
342
334
328
323
323
326
333
340
346
354
360
362
362
357
353
347
342
336
329
329
328
327
330
333
333
338
341
342
342
342
340
337
332
330
327
327
328
329
334
337
342
344
343
343
339
331
323
315
308
302
301
303
306
312
318
324
330
335
336
337
334
332
327
322
315
310
309
306
309
312
316
319
322
324
323
321
318
314
309
305
301
300
300
301
304
309
313
318
324
325
327
327
326
324
320
317
318
319
322
326
332
338
342
345
348
346
342
338
331
322
316
308
303
301
301
301
305
311
316
322
326
328
328
324
321
315
309
303
299
299
301
306
310
319
327
332
335
337
336
330
323
314
305
299
298
298
302
308
314
320
326
331
334
335
334
330
325
320
318
318
318
319
322
325
328
331
334
336
339
341
341
341
342
343
345
350
353
357
363
365
365
365
359
352
342
331
318
308
299
295
295
299
307
318
331
341
348
352
351
349
341
333
323
315
306
305
304
306
309
315
320
324
330
335
336
337
335
333
331
329
329
332
335
339
344
348
349
352
353
353
352
349
346
341
337
331
329
327
326
325
323
317
307
294
276
255
235
213
193
176
162
151
145
144
148
158
171
186
204
224
244
269
293
316
336
357
374
389
403
415
428
437
441
445
444
440
434
426
415
402
390
377
364
351
341
330
325
318
312
308
305
303
302
303
305
308
312
316
321
328
335
343
351
357
362
366
365
363
358
350
341
332
318
309
300
293
287
286
287
291
296
303
309
314
317
318
318
317
315
315
317
322
328
333
337
340
342
341
340
338
336
332
326
323
318
317
317
319
323
326
329
330
329
326
320
314
306
299
293
289
288
290
292
296
300
307
310
318
321
324
325
322
319
312
304
297
291
286
283
281
284
287
290
293
294
292
290
286
283
279
275
270
267
265
264
264
263
263
263
261
262
262
262
261
257
252
245
240
237
235
237
240
246
253
260
266
270
272
271
269
264
261
260
260
262
265
272
277
283
286
287
284
279
270
261
250
238
230
225
223
226
233
245
259
275
290
304
314
321
324
323
320
315
311
308
306
307
312
318
324
329
334
335
338
336
333
328
323
319
317
318
321
326
333
339
344
350
353
356
358
356
353
349
346
343
343
342
344
346
346
346
346
345
345
346
347
347
350
352
354
359
362
367
372
378
382
383
383
381
377
371
363
354
346
339
332
330
328
328
330
332
334
336
338
339
341
342
345
347
349
350
353
353
358
362
366
367
367
367
365
362
359
354
348
342
335
330
327
326
326
328
331
333
336
340
344
350
353
357
360
360
359
357
355
355
355
355
356
358
360
361
361
359
355
350
346
341
339
339
340
342
346
349
352
356
358
357
357
355
351
346
342
339
339
344
352
359
368
375
380
384
384
383
377
373
365
358
350
345
342
342
344
351
357
363
369
372
373
372
369
361
356
349
342
340
340
343
347
354
358
364
367
366
359
355
347
339
330
322
317
315
315
319
326
332
339
345
347
347
342
336
327
319
312
306
305
307
310
315
321
326
332
337
341
344
346
344
341
336
328
324
321
320
321
324
332
341
349
354
358
359
358
352
349
342
335
331
330
330
333
338
344
350
355
358
357
354
349
342
336
331
327
327
328
330
332
335
338
341
343
344
345
344
342
340
337
335
335
335
335
336
337
339
342
344
344
343
342
339
336
333
331
330
331
332
334
337
338
340
340
338
338
335
333
330
326
323
320
319
320
320
322
325
328
333
336
340
344
347
347
346
343
339
336
332
330
329
329
330
330
331
331
330
330
328
327
325
326
326
328
332
335
341
346
352
356
358
359
358
355
351
346
341
336
334
334
334
335
337
339
340
341
342
344
345
346
344
343
341
338
338
339
341
345
347
354
358
359
358
356
351
344
335
326
317
310
306
303
304
307
312
317
323
326
326
323
318
312
304
297
291
288
290
292
297
306
314
324
331
337
339
339
335
329
321
313
307
303
301
302
306
310
316
321
323
323
322
316
310
304
298
294
294
299
305
315
325
335
343
349
353
354
353
348
343
337
332
328
327
327
329
333
337
341
347
351
353
354
353
349
345
340
334
330
327
326
327
329
332
334
337
339
340
340
338
334
331
325
321
318
317
318
321
322
327
331
334
334
333
330
323
317
312
306
304
307
310
316
322
328
333
337
337
334
328
317
305
290
273
255
238
222
209
198
189
186
184
183
185
186
194
202
213
225
240
260
283
308
336
364
390
415
436
455
469
481
486
489
488
483
476
468
461
455
450
447
446
447
448
449
448
444
435
427
417
408
403
402
402
406
411
416
422
425
427
427
425
422
417
412
407
403
402
402
405
411
417
423
428
433
434
432
430
424
415
409
400
394
391
389
390
394
400
407
415
422
427
430
430
427
422
414
407
400
395
392
391
391
392
393
394
395
395
393
388
380
371
359
348
338
329
324
320
319
318
319
318
316
313
306
299
288
279
270
265
263
266
270
278
285
292
298
300
300
296
288
279
270
262
254
253
252
255
260
265
270
275
278
281
281
280
277
272
269
264
261
259
258
259
262
265
266
269
268
265
261
255
247
241
235
230
230
230
236
242
248
254
260
264
265
265
261
255
248
240
233
229
228
229
233
237
242
248
254
258
261
263
261
258
254
250
249
251
257
269
283
298
315
331
346
360
371
379
383
385
387
386
386
387
390
392
397
400
406
410
413
414
412
409
410
406
403
403
403
406
412
419
426
433
440
442
445
445
442
437
433
428
424
421
420
421
424
429
435
441
447
450
453
455
454
453
450
447
444
443
440
440
440
440
441
442
442
442
442
441
438
434
429
425
419
420
418
421
425
431
437
443
448
450
448
446
440
434
424
416
408
400
395
391
388
386
383
379
373
365
356
347
339
333
329
328
328
332
337
342
346
348
351
350
349
346
342
338
334
330
329
330
332
336
342
347
351
353
353
350
346
341
335
329
323
318
316
316
317
322
327
334
339
344
346
346
344
339
334
328
322
316
314
313
315
320
326
333
339
344
346
346
344
340
336
331
328
327
329
332
337
342
344
346
346
342
338
332
324
316
309
303
299
299
301
307
316
322
331
337
340
340
339
335
331
326
321
319
321
324
329
334
339
343
346
347
345
340
335
329
322
317
314
312
314
316
321
327
333
338
343
347
349
352
350
346
340
332
321
316
313
311
315
322
329
336
343
347
347
345
341
334
329
323
318
318
318
320
324
327
329
329
327
325
324
321
319
316
314
314
316
317
325
331
339
345
349
353
353
351
348
342
335
328
321
316
312
314
318
325
331
339
346
351
355
355
351
345
337
329
321
315
314
316
321
327
333
339
343
343
342
338
331
325
319
313
309
307
310
314
320
327
333
338
342
343
342
338
333
328
321
316
312
311
312
316
323
329
336
342
345
347
345
342
335
331
325
321
320
321
324
332
338
344
348
351
350
346
339
330
320
311
304
299
298
301
308
318
328
337
346
351
353
352
349
345
339
333
327
323
321
319
323
326
330
333
335
334
334
329
325
320
314
309
303
304
306
310
317
324
330
335
338
338
336
331
325
319
313
307
304
303
306
310
317
324
336
343
347
347
346
341
334
326
318
312
309
307
308
311
315
319
324
326
328
329
327
325
322
318
316
316
318
320
323
328
333
338
342
344
346
345
343
340
339
337
336
337
339
341
342
344
344
346
345
344
342
340
336
330
327
321
317
316
316
320
324
331
338
344
349
352
353
352
349
344
340
337
336
336
338
341
344
348
353
354
356
358
356
354
351
347
343
343
345
348
354
360
365
370
371
369
364
355
341
325
306
286
266
252
238
226
217
207
199
191
183
175
169
162
159
157
163
173
190
210
239
270
305
340
375
404
428
445
455
458
454
446
436
425
416
408
401
397
393
390
386
381
375
369
361
353
344
338
333
328
325
325
325
326
328
330
329
332
334
333
333
332
330
326
323
320
321
320
321
322
324
327
330
332
335
335
334
332
329
327
325
323
323
325
328
333
339
343
346
347
346
340
333
323
313
304
298
295
296
301
308
317
326
332
337
340
340
337
333
326
319
313
308
305
305
305
307
309
309
307
305
301
298
295
293
292
291
292
294
296
299
302
305
308
309
310
308
304
298
290
281
273
267
265
266
269
277
285
292
298
303
305
304
304
300
294
288
282
275
269
263
258
254
252
250
248
247
245
244
242
240
238
238
239
241
244
247
252
255
259
263
266
269
270
269
267
264
259
254
253
252
253
255
258
262
266
270
274
277
278
278
278
277
275
276
277
279
283
285
291
296
300
304
308
312
312
315
315
316
317
320
325
333
341
349
356
363
367
369
370
369
367
366
361
357
355
354
355
359
365
371
377
383
384
383
380
373
365
356
347
340
341
343
347
355
363
373
381
385
388
387
384
379
375
369
366
365
366
369
374
376
380
381
381
377
373
369
363
358
353
350
349
350
351
354
358
364
368
372
374
375
375
373
370
367
364
361
360
361
363
367
373
378
385
388
390
389
386
380
372
363
352
344
338
336
338
344
353
363
372
379
385
387
386
383
378
371
366
361
359
357
358
359
361
364
367
369
369
371
370
370
368
370
372
375
379
384
388
394
397
399
400
398
396
393
387
383
376
368
363
356
352
350
351
354
359
366
372
378
382
382
380
376
371
365
360
358
356
358
358
359
362
364
366
368
369
369
369
367
364
362
359
358
358
359
358
359
358
357
356
354
352
349
345
341
337
336
336
340
346
353
362
369
373
375
374
369
362
354
345
337
332
329
327
331
334
336
339
342
343
343
341
338
333
328
323
321
320
322
328
335
343
350
357
362
363
363
361
357
352
347
341
336
335
333
332
337
339
344
349
353
354
354
353
349
345
342
338
338
341
345
353
361
368
375
377
375
368
359
347
336
325
317
312
311
314
321
330
341
351
361
368
372
372
368
362
354
345
337
331
325
326
326
329
333
338
344
349
352
353
351
347
343
338
332
330
325
326
327
330
335
342
347
353
357
360
359
356
351
344
339
335
333
334
337
341
346
350
352
353
353
350
346
340
335
331
331
332
334
340
345
350
354
355
355
353
350
346
339
338
335
336
339
345
351
360
364
368
368
364
360
355
348
342
337
334
333
335
339
342
348
354
356
361
362
361
360
357
352
346
339
331
325
322
321
322
329
334
341
347
352
355
354
350
342
333
322
312
305
298
299
300
304
306
312
315
317
319
319
317
314
311
308
307
308
311
317
325
334
342
347
352
355
353
349
341
336
329
321
318
314
316
319
323
328
333
337
341
343
344
343
341
341
341
341
344
347
351
355
359
363
367
370
371
371
367
363
358
351
346
342
341
341
345
349
354
359
363
364
364
358
353
346
341
335
333
334
336
339
341
345
347
348
348
348
346
343
338
334
330
325
323
322
325
329
334
340
345
349
349
346
340
334
328
322
319
320
326
333
343
352
358
364
368
366
361
353
338
320
300
277
254
234
217
202
189
177
170
163
158
155
154
159
167
179
196
216
238
264
294
324
356
384
411
435
451
463
470
471
466
455
441
425
409
395
384
376
372
371
373
374
376
379
378
375
368
363
354
346
340
334
331
328
327
328
330
332
334
337
337
340
341
340
340
338
336
332
329
327
326
327
329
328
327
327
325
323
320
317
315
315
317
321
326
333
338
341
343
341
342
338
335
331
326
320
319
316
315
316
316
317
318
320
320
320
320
318
315
311
309
307
307
309
313
319
324
333
339
342
343
341
335
325
314
304
295
290
286
286
288
292
296
300
303
303
300
297
290
283
273
268
265
265
268
273
280
287
292
296
297
297
294
288
281
273
265
262
260
258
260
264
269
274
279
281
281
279
275
268
260
252
245
239
237
238
242
249
255
261
264
264
261
255
248
239
230
221
217
215
216
221
232
244
256
270
281
288
293
294
290
284
278
271
267
267
270
278
288
299
309
318
324
327
328
328
326
324
322
321
322
324
327
332
336
341
344
347
347
349
347
343
339
335
330
331
332
337
344
353
361
368
375
377
379
377
371
366
358
352
346
344
346
349
355
361
366
370
371
371
368
364
358
352
348
343
340
339
339
341
345
346
351
355
357
358
359
355
353
351
349
349
349
356
360
364
370
373
376
379
378
378
374
367
360
353
347
342
338
341
344
349
355
362
368
373
375
375
374
371
371
367
365
362
366
367
371
375
378
382
386
388
388
386
385
382
377
369
365
360
356
353
353
354
360
365
369
372
372
370
367
362
358
355
353
357
361
367
373
379
384
388
389
388
383
380
374
368
359
354
351
352
353
359
366
374
384
390
394
397
396
394
389
382
375
370
365
361
362
363
365
368
370
372
375
377
377
375
372
369
366
365
366
370
374
381
385
393
398
399
398
395
385
376
364
353
347
345
348
355
366
379
390
400
406
410
411
409
405
399
393
387
384
380
378
379
383
387
393
394
396
396
395
392
389
386
384
384
384
383
381
380
379
378
379
378
378
378
377
376
375
372
372
373
374
377
381
385
387
391
392
393
395
394
391
388
381
374
369
367
367
370
378
387
396
405
412
417
418
417
410
404
397
392
388
386
386
389
391
394
395
396
395
395
389
381
375
368
360
355
352
353
356
362
367
374
381
385
390
393
394
394
395
395
395
396
397
398
401
403
405
406
407
408
408
406
401
397
391
383
375
367
363
362
366
371
380
389
395
399
401
399
397
394
389
385
382
379
376
377
377
380
383
389
395
401
406
409
412
413
413
413
412
409
404
397
388
379
372
366
362
360
359
360
363
365
370
375
381
385
388
388
385
382
377
370
363
356
351
347
345
344
344
347
351
357
363
370
375
380
382
383
382
382
382
382
382
384
389
395
402
409
414
418
420
419
414
410
404
397
391
390
390
396
404
415
424
433
438
442
443
442
439
436
433
430
425
420
417
417
419
424
436
448
461
474
481
485
484
478
467
454
438
421
407
398
389
385
385
389
397
409
421
431
439
442
437
432
424
417
415
416
420
424
431
436
441
443
441
436
431
423
417
413
412
416
426
434
442
447
448
443
435
423
406
390
371
350
330
314
300
290
285
282
281
283
287
290
295
302
311
322
334
347
362
378
397
422
445
473
498
522
543
559
571
576
576
566
548
526
503
485
471
464
460
461
465
471
474
483
490
496
500
499
493
485
473
461
451
443
437
436
440
445
452
457
459
462
461
456
450
448
445
446
450
456
465
476
483
489
490
486
477
462
445
428
414
404
401
407
421
440
462
486
504
516
522
519
510
494
473
451
430
413
403
400
404
413
427
440
458
473
486
495
500
497
491
482
472
461
454
450
448
449
451
450
448
445
441
435
429
424
422
424
430
441
455
470
486
498
502
503
497
484
469
453
436
426
422
425
435
450
469
485
499
508
507
503
492
475
456
436
416
403
394
390
396
407
423
440
458
473
484
490
488
479
464
448
430
416
402
394
390
391
395
403
413
422
431
438
441
443
442
439
437
437
437
439
447
455
467
476
483
485
484
481
477
471
463
456
450
444
442
445
453
466
482
498
514
527
535
536
532
525
511
497
485
474
466
468
475
485
500
516
532
545
554
557
557
551
543
534
524
516
511
511
513
519
528
537
546
552
552
549
542
532
523
515
509
507
510
515
522
530
537
544
548
551
549
546
543
539
534
529
525
522
522
522
523
529
535
540
545
548
550
552
549
547
542
537
533
531
529
529
530
531
533
535
535
536
536
534
529
526
521
519
519
520
526
532
540
548
551
556
557
557
557
556
555
553
552
554
554
555
555
556
556
557
557
554
552
549
544
538
532
527
523
523
525
528
536
544
552
555
558
555
552
547
538
528
519
511
505
502
504
510
520
531
543
555
561
565
570
566
564
558
552
545
540
538
538
544
553
562
570
576
579
578
575
568
559
551
545
540
540
541
544
549
554
558
561
563
567
569
569
567
565
563
561
559
557
555
556
557
558
560
564
567
572
577
579
580
580
576
570
564
557
554
551
549
547
548
550
555
559
562
564
563
563
563
564
567
571
577
582
588
593
598
599
600
598
593
590
588
582
578
574
574
574
577
580
581
585
587
587
587
585
580
576
573
569
566
567
567
570
571
576
579
581
580
578
576
573
570
569
567
566
567
569
574
579
583
588
592
596
598
598
597
592
587
582
576
570
568
569
573
579
586
591
599
603
605
605
602
598
592
583
575
569
567
566
569
571
575
580
581
580
578
575
566
558
551
542
538
539
543
550
556
566
573
579
581
581
580
576
570
564
558
556
556
561
567
576
582
587
591
591
588
584
579
572
570
566
563
563
567
571
577
585
592
600
607
610
610
610
607
600
596
587
580
575
570
570
573
576
583
589
594
598
601
604
604
602
601
599
598
597
594
591
590
589
588
588
586
585
586
586
586
585
587
590
593
594
596
599
599
601
600
599
596
593
591
587
582
578
575
572
576
578
582
589
595
599
604
605
604
605
600
595
589
582
575
569
564
560
561
565
572
581
589
595
600
602
600
594
588
580
570
560
547
533
520
506
491
477
465
456
451
449
448
452
458
467
479
492
506
522
540
556
573
590
606
621
635
645
652
657
660
661
662
661
660
659
657
655
653
650
648
645
639
632
623
614
604
596
585
575
571
564
558
554
549
546
544
546
547
548
552
555
556
561
564
568
573
576
577
579
578
577
574
569
563
556
549
543
540
539
541
547
552
558
562
566
565
565
559
555
549
544
538
534
532
532
536
542
550
558
570
580
586
590
589
585
577
570
558
552
544
542
541
541
546
551
557
561
564
566
565
563
559
551
544
538
534
533
535
537
540
547
550
550
549
546
541
535
529
521
515
510
509
510
513
518
523
528
532
533
535
533
530
525
517
511
506
504
505
509
515
522
531
535
537
534
531
525
517
508
499
494
492
492
494
498
501
505
507
508
505
502
498
492
486
481
478
478
480
485
490
497
505
511
514
516
516
513
509
504
500
497
499
505
513
522
529
537
541
543
546
546
547
547
547
548
549
552
556
560
566
569
576
581
584
584
582
580
578
574
571
567
564
561
559
558
561
563
567
572
577
581
585
588
590
589
588
585
582
580
577
576
576
578
581
584
585
584
582
578
574
569
564
560
558
557
559
563
568
572
574
575
572
570
566
561
559
559
559
563
569
575
580
585
586
584
580
572
562
551
538
529
523
519
521
527
536
547
558
568
574
577
578
574
567
564
557
552
546
542
540
541
545
548
553
558
562
568
569
570
570
568
565
561
556
551
546
540
538
537
541
545
550
556
557
559
559
555
552
549
546
544
546
548
550
556
558
561
562
560
557
554
550
546
542
536
532
530
528
527
527
530
532
534
538
540
543
544
543
544
543
541
539
539
539
541
543
545
545
548
548
545
542
536
529
523
519
514
511
510
512
517
524
529
534
536
541
542
541
537
532
525
517
511
509
509
512
516
520
524
530
533
537
539
538
538
537
535
531
529
529
531
535
540
543
547
551
551
549
546
540
533
526
518
514
512
511
512
515
517
520
522
522
521
518
514
511
509
507
508
510
514
517
522
527
530
534
535
533
527
522
514
506
499
493
489
490
493
497
506
514
522
530
534
537
537
534
528
525
518
512
506
503
501
503
507
510
517
521
524
524
523
518
510
502
491
485
483
483
486
491
498
505
512
515
516
515
511
507
501
494
488
483
480
479
480
484
488
493
497
497
497
496
492
488
484
481
481
485
491
498
507
516
523
528
528
525
519
509
496
482
468
456
448
445
449
456
469
484
498
511
519
522
522
514
504
490
477
467
460
457
458
465
475
485
499
508
518
524
526
523
516
507
497
487
480
474
474
477
482
489
498
505
511
514
512
510
506
499
497
495
494
493
495
495
495
496
494
493
491
488
484
481
477
474
473
473
474
476
484
488
492
495
496
497
495
490
484
477
468
462
455
449
444
440
433
426
418
409
399
389
378
367
357
348
340
339
341
349
362
381
401
423
447
470
492
513
530
543
553
560
563
564
563
562
562
561
560
558
556
554
552
548
542
534
526
515
506
498
490
485
480
476
472
468
462
457
451
443
438
434
432
434
438
445
453
463
471
476
481
482
483
481
477
471
464
456
449
445
443
443
446
449
453
456
459
461
462
463
460
458
456
453
451
450
451
451
454
455
457
457
461
463
464
466
467
465
463
458
451
442
436
432
428
426
426
429
435
442
449
455
461
465
465
462
457
450
441
432
424
416
410
407
406
407
410
412
415
419
421
423
429
435
440
444
448
450
450
447
442
433
422
412
400
388
377
371
367
367
369
372
376
382
386
389
393
393
390
389
386
383
381
381
379
377
376
375
375
377
378
378
378
378
377
374
372
371
370
371
373
376
381
386
394
400
405
408
408
405
400
391
381
373
368
365
371
377
388
400
410
418
423
426
424
418
413
404
396
392
389
391
396
405
415
428
438
446
452
454
453
451
445
439
433
429
426
425
427
430
436
445
453
462
469
478
480
480
476
469
463
457
452
449
447
448
449
450
451
451
449
448
444
440
437
435
435
436
439
443
447
451
457
460
462
465
466
466
465
461
458
454
450
445
441
441
439
439
441
444
446
448
447
449
447
444
440
439
435
437
441
444
448
453
457
461
464
465
462
458
452
447
444
442
444
449
456
461
467
469
469
463
456
446
434
426
418
413
412
413
417
422
427
432
434
440
443
445
445
443
439
433
429
426
423
424
428
431
435
440
444
448
451
453
450
447
442
437
433
432
432
433
437
442
446
451
453
453
451
446
438
429
419
410
404
399
398
402
407
415
424
432
439
443
444
443
438
432
425
418
414
412
414
418
421
425
430
433
435
437
437
436
434
430
427
425
424
424
426
429
432
436
440
444
446
448
445
441
435
426
418
414
412
414
420
427
437
445
452
456
456
454
448
441
432
421
415
408
405
405
408
411
417
423
427
430
433
432
431
427
421
420
420
419
421
425
429
434
440
445
449
450
449
445
437
426
415
407
402
400
399
402
408
413
420
425
427
428
426
421
415
408
402
398
396
396
398
401
406
412
416
419
423
424
424
423
420
418
416
415
412
410
407
404
403
403
402
404
406
404
404
403
402
404
407
412
419
428
433
439
442
440
435
427
417
405
391
376
362
355
350
351
357
368
379
391
402
411
420
425
426
423
418
411
401
397
392
391
391
394
398
404
408
411
413
411
411
408
406
403
403
402
403
404
404
404
403
402
400
398
397
393
389
385
379
375
372
372
375
381
387
394
401
406
411
414
414
414
411
407
406
405
405
407
410
413
415
418
420
421
420
418
413
407
400
396
390
389
388
390
394
398
404
411
417
422
425
424
420
416
410
404
401
400
401
403
408
414
418
426
428
429
426
421
413
406
399
393
390
390
390
394
396
400
403
404
407
405
401
393
382
369
354
340
325
312
299
292
284
277
275
271
270
270
272
277
286
296
313
332
353
377
403
433
461
489
513
534
550
559
565
565
558
548
536
522
509
501
492
488
487
488
490
492
492
491
489
483
477
471
467
462
463
464
466
469
473
476
478
480
477
473
467
462
456
454
453
456
459
465
470
479
488
492
496
495
491
484
476
467
458
453
451
450
453
456
460
464
466
466
465
460
455
450
442
435
431
426
428
432
437
444
452
460
465
469
470
468
463
457
451
444
439
436
432
434
434
433
432
428
423
417
409
402
395
388
382
379
377
375
374
373
370
366
362
356
351
347
341
338
335
333
333
334
336
339
341
342
340
338
334
331
327
322
317
312
305
303
302
303
306
312
320
328
336
342
345
346
343
338
331
325
318
313
309
306
306
308
310
312
313
313
312
310
308
304
301
299
298
298
300
303
308
316
323
329
335
337
336
331
325
319
313
311
313
319
329
343
359
375
390
403
412
418
423
423
421
421
418
417
416
418
422
429
438
447
456
465
470
473
472
468
463
458
455
454
456
459
463
466
469
470
471
468
465
463
459
454
450
444
439
435
433
430
429
435
440
446
452
458
464
469
471
472
470
467
463
460
458
456
455
454
455
456
454
458
459
459
458
456
454
451
449
447
446
447
450
452
456
460
462
463
463
460
456
451
447
440
438
436
436
438
443
449
454
459
463
466
467
466
463
457
449
441
432
425
416
409
403
399
396
395
394
393
389
385
379
373
367
361
360
361
365
368
373
381
386
391
392
390
386
380
374
367
361
359
359
361
365
368
370
372
372
371
368
365
360
357
352
350
350
352
357
364
370
376
381
386
390
389
385
380
373
366
359
353
351
352
354
360
365
372
378
382
385
383
383
380
376
371
367
365
364
366
371
375
381
388
392
393
391
387
383
376
368
360
354
350
345
347
349
353
360
368
376
381
388
391
391
389
381
372
364
355
350
348
346
348
353
357
361
366
368
369
367
365
361
358
357
355
356
359
362
365
367
371
374
376
376
376
376
371
368
365
363
363
364
367
370
375
378
379
380
379
377
373
369
364
358
355
353
353
356
359
360
364
364
363
360
357
356
354
352
352
350
353
355
356
357
363
366
370
373
375
375
372
369
363
358
354
351
351
353
357
362
367
370
374
376
375
373
370
364
360
356
353
353
354
357
361
365
369
370
369
369
366
363
357
353
349
346
345
343
343
345
348
352
356
361
364
367
366
362
357
350
343
338
331
329
327
328
329
332
335
339
342
347
351
353
357
360
363
365
367
369
370
370
370
367
367
367
366
363
361
356
355
353
353
351
354
359
365
372
380
386
391
393
392
388
382
375
369
365
364
365
368
372
377
382
385
389
389
389
385
381
374
369
364
360
358
358
360
364
368
374
378
381
381
380
375
369
363
357
353
353
355
361
369
376
382
384
386
384
380
375
369
364
356
353
352
351
354
361
369
379
389
395
400
401
399
393
384
374
360
348
336
324
313
303
293
285
277
269
261
253
245
236
230
225
227
233
244
261
278
299
321
343
366
385
402
415
426
435
442
446
450
454
455
454
453
448
444
439
430
420
408
398
385
374
363
353
349
347
350
354
359
364
369
372
373
372
370
368
365
362
361
362
365
369
375
381
387
391
395
394
390
384
376
369
362
356
352
352
354
359
365
371
377
383
387
387
385
380
373
364
355
347
341
339
337
340
343
348
353
356
358
359
358
356
353
349
344
340
337
335
335
336
340
344
349
354
355
355
350
348
343
338
333
329
329
328
334
340
348
357
366
373
378
381
380
375
368
358
347
339
334
332
335
339
343
350
353
352
348
346
338
328
319
310
305
303
306
311
320
329
337
343
343
344
341
335
326
316
305
295
288
284
284
285
291
299
308
316
322
324
327
324
319
312
305
297
294
291
291
293
297
301
307
312
314
319
320
319
317
314
312
311
310
315
320
326
332
337
342
345
348
351
351
350
349
345
343
343
343
346
350
355
360
365
368
369
369
368
364
364
362
361
363
367
373
380
386
392
398
402
404
403
403
398
392
383
374
365
359
355
354
356
359
365
370
375
379
385
391
395
397
397
395
393
391
389
388
387
386
386
384
382
381
379
378
376
374
373
372
373
376
380
386
392
400
405
410
412
412
410
405
400
394
387
383
379
378
379
380
380
385
388
390
391
390
388
385
383
381
380
381
383
387
390
393
397
398
399
400
400
395
390
384
376
369
362
357
355
357
360
365
370
374
378
379
379
376
372
366
359
352
347
344
345
347
352
358
364
369
372
374
374
374
374
373
372
373
375
378
382
386
389
392
392
390
388
384
377
373
367
362
356
351
349
349
350
354
361
368
376
382
390
393
393
391
385
379
375
371
369
370
371
373
377
380
381
383
382
381
378
374
368
364
361
359
361
364
369
376
382
388
393
396
396
393
390
382
379
375
373
373
376
379
383
387
388
388
386
383
379
375
370
367
366
366
368
373
379
384
391
396
399
400
398
392
386
380
371
361
358
355
356
361
368
376
384
392
398
403
405
405
401
395
388
380
372
366
362
360
361
364
368
374
378
383
383
385
383
378
372
366
358
351
346
341
343
346
351
358
366
371
375
377
376
375
373
369
369
369
368
368
369
369
369
370
370
370
369
368
365
363
360
360
359
360
363
365
369
370
371
371
369
365
361
356
350
346
342
341
343
347
353
361
367
372
376
379
380
380
380
378
376
374
371
370
369
369
370
372
374
376
378
378
375
375
374
372
370
367
365
363
362
363
366
369
374
380
384
385
385
380
371
361
350
340
333
331
331
333
339
346
353
361
367
369
369
366
361
355
349
346
345
346
349
353
359
365
367
368
368
366
364
361
359
357
357
358
361
360
365
367
368
369
368
365
360
356
351
347
343
344
346
350
355
361
367
373
377
379
380
377
373
366
357
349
341
334
333
333
334
339
347
356
363
373
378
381
381
378
373
366
358
352
347
345
345
348
354
361
365
369
370
370
369
366
361
356
351
349
348
348
351
356
362
367
374
379
381
382
380
376
371
366
363
362
362
362
362
365
364
361
356
347
335
320
301
284
266
251
239
230
227
228
232
242
253
263
273
283
295
304
314
328
342
359
380
400
421
444
462
477
488
493
492
487
476
460
445
427
410
392
378
365
355
349
344
342
344
346
349
352
353
352
352
351
351
353
356
359
364
366
368
368
366
366
363
359
354
348
346
340
338
338
337
340
344
347
349
352
354
356
355
353
352
350
350
352
354
357
360
365
367
371
374
374
376
375
372
367
360
352
346
339
338
337
339
344
349
353
356
358
359
357
355
352
350
349
348
345
348
350
352
353
353
351
349
344
338
333
327
323
321
320
321
328
335
344
352
358
361
364
361
357
352
345
338
332
327
323
322
322
323
326
330
333
337
340
341
340
337
334
330
326
324
324
327
331
336
339
346
347
347
342
336
327
318
308
300
293
288
287
290
292
301
308
315
321
327
330
331
330
327
322
315
311
308
306
306
307
309
312
316
320
322
325
327
328
329
327
328
329
330
333
335
337
344
349
354
359
363
367
369
370
371
372
372
375
376
377
381
385
387
390
391
390
387
383
376
368
361
356
354
356
361
367
374
381
386
391
392
389
386
382
376
370
365
364
366
369
373
379
386
393
399
404
406
406
405
402
398
394
393
393
394
397
399
402
406
408
409
409
408
405
401
396
390
384
380
378
382
384
389
395
400
403
405
404
402
399
395
390
386
382
380
380
380
383
385
387
388
390
388
386
383
379
372
366
361
359
361
366
372
381
392
400
406
408
407
402
398
389
380
372
368
365
365
369
373
379
384
389
390
391
390
389
386
383
380
379
378
378
380
381
383
387
388
389
390
389
387
386
383
380
375
373
371
369
370
372
376
380
384
386
389
388
384
379
371
362
356
350
349
350
353
358
362
365
368
370
370
370
368
366
363
363
364
365
368
373
377
381
385
387
388
388
386
382
376
369
364
358
356
355
359
364
373
382
390
395
398
398
394
387
379
367
358
351
345
342
343
345
348
352
354
356
358
355
354
351
347
343
341
340
340
345
351
357
363
364
367
365
361
354
347
340
334
331
331
333
337
343
348
354
360
363
366
369
368
366
363
358
354
350
346
345
346
349
355
360
365
368
371
370
367
362
355
348
343
339
338
340
346
352
359
366
371
374
374
372
367
360
352
343
337
333
332
335
337
346
355
363
370
375
378
376
373
368
361
354
346
341
339
339
340
344
349
352
357
360
361
362
362
360
358
355
354
353
354
355
356
359
362
366
368
371
373
374
372
371
366
361
355
351
349
349
350
353
356
358
360
358
359
357
354
352
349
349
351
356
362
369
376
381
384
384
381
379
374
371
364
357
352
348
346
345
341
343
343
343
342
343
341
341
339
336
332
329
325
324
324
325
329
334
341
347
352
355
354
353
349
345
341
338
336
336
338
338
340
342
343
342
339
337
333
330
327
323
322
323
325
327
333
338
343
349
353
357
360
361
360
358
353
347
344
341
340
339
338
338
339
338
338
338
337
338
338
336
336
336
336
338
344
349
356
364
371
374
378
378
376
369
360
354
346
341
339
341
346
351
359
365
368
369
368
364
359
352
343
336
330
325
324
325
329
334
340
345
350
356
361
364
364
362
358
352
345
337
328
321
316
313
310
308
307
306
303
298
292
283
270
261
249
238
228
221
216
215
216
220
227
236
245
256
268
282
296
313
331
350
371
391
410
427
440
450
456
456
452
444
432
420
408
398
389
384
379
378
377
376
375
373
370
365
359
352
343
336
331
329
331
336
342
348
354
358
359
358
354
348
341
333
326
318
312
308
308
309
313
321
329
338
346
352
355
355
353
348
342
336
331
328
327
331
335
340
346
350
352
353
351
348
342
335
328
322
317
316
316
318
323
330
335
341
345
344
342
338
332
327
322
318
318
321
325
331
337
342
344
345
344
342
340
336
333
330
328
328
328
329
329
328
326
322
318
314
309
305
301
296
292
292
291
294
299
303
310
316
321
323
322
318
308
302
293
284
278
275
273
279
284
291
297
302
304
305
304
299
293
287
278
272
268
265
266
269
273
279
285
289
291
294
292
290
287
283
278
275
272
272
274
276
280
284
291
296
300
304
306
308
306
303
301
299
297
297
300
304
313
321
328
332
335
335
333
329
324
320
317
316
317
320
322
328
334
339
344
348
351
353
353
353
351
350
350
350
352
355
358
362
367
369
370
369
365
360
353
345
338
333
332
334
338
346
354
362
370
375
377
378
377
373
368
362
355
351
347
345
345
348
351
355
358
362
364
366
366
366
363
359
354
349
345
342
340
339
339
338
339
339
340
340
338
336
332
328
325
322
321
322
324
328
331
338
341
344
345
347
345
344
340
338
335
335
336
339
343
347
352
355
358
361
362
363
361
359
354
350
346
343
345
347
351
355
360
363
366
368
369
368
365
362
358
354
350
347
344
341
339
338
337
338
340
341
343
344
344
342
338
335
331
329
328
327
331
335
337
340
341
339
337
334
330
328
327
328
328
333
336
341
345
348
352
353
357
359
360
358
353
351
347
343
339
336
333
332
330
328
327
325
325
325
326
325
328
329
332
334
337
339
342
344
346
348
350
351
349
346
343
339
335
333
331
334
336
341
347
352
356
359
360
358
355
349
343
337
333
330
328
329
332
336
342
346
349
351
352
350
348
345
340
336
332
331
332
335
341
347
353
358
362
364
363
362
358
352
345
338
332
328
326
326
328
331
334
338
342
345
345
345
342
336
331
326
323
321
319
323
328
334
341
348
352
355
355
351
346
341
335
331
329
331
334
338
344
348
352
351
348
344
337
329
321
314
309
308
312
318
327
338
347
355
359
362
364
362
356
350
344
337
332
329
329
330
336
341
347
351
356
357
358
354
347
341
334
327
321
318
317
319
324
329
334
338
340
339
337
331
324
317
309
307
305
308
313
320
332
341
349
354
357
355
349
340
330
320
312
307
305
307
311
316
321
322
322
319
315
311
308
304
303
301
300
301
304
309
315
323
330
337
344
348
350
349
345
338
331
323
315
309
303
300
298
297
296
296
297
296
296
296
293
292
292
291
293
295
297
301
305
309
313
319
322
325
325
323
320
317
311
308
309
311
315
320
324
329
334
337
339
341
343
341
340
339
336
335
336
339
343
349
353
358
361
363
362
363
360
355
353
349
346
345
345
346
347
347
346
345
340
338
334
330
327
324
322
321
323
326
330
336
340
345
349
352
352
351
349
344
340
336
332
331
332
335
338
342
345
349
352
353
352
350
348
342
338
336
334
336
338
339
340
340
339
338
338
334
328
320
306
291
275
259
245
236
228
221
221
221
222
224
226
228
231
238
243
252
262
276
291
310
330
352
374
395
415
429
438
442
441
435
425
413
402
392
384
376
370
364
362
360
356
350
345
337
332
321
317
311
308
308
313
317
325
333
341
347
349
348
345
339
331
321
312
305
302
301
302
305
311
317
324
331
335
338
339
336
331
324
318
313
310
309
311
316
320
326
329
330
328
324
319
313
307
302
298
296
298
301
306
312
316
321
322
321
318
314
308
303
298
296
295
296
300
306
313
322
330
336
342
345
344
345
340
335
330
324
319
316
313
312
314
316
316
315
313
308
302
296
289
284
281
279
280
283
287
293
300
303
309
311
311
308
304
296
288
282
277
274
274
276
280
284
287
289
289
288
284
279
272
265
260
257
256
260
265
270
275
281
284
287
290
290
289
286
280
272
264
256
250
247
246
252
260
268
279
289
299
305
309
306
303
297
290
282
276
273
273
276
280
286
291
297
300
303
302
302
302
302
302
304
308
313
319
326
331
336
339
340
341
341
340
337
335
334
333
333
336
341
347
354
361
369
375
376
377
374
368
361
352
343
337
334
335
339
346
353
359
366
371
372
372
372
369
365
363
362
361
365
368
372
376
378
380
381
379
376
372
367
360
352
346
341
341
343
348
354
360
366
369
369
366
361
355
349
343
339
338
339
345
351
359
367
372
376
379
378
376
372
368
362
355
349
346
345
345
348
352
356
362
365
366
366
365
363
358
353
350
348
347
349
351
351
357
359
361
361
360
359
355
351
347
343
340
339
340
343
348
354
360
364
367
367
365
362
356
347
341
334
329
325
324
324
327
331
336
340
345
348
350
350
349
347
344
343
343
344
347
352
355
359
361
362
361
359
354
351
345
341
338
336
335
337
340
342
348
352
355
358
360
360
360
358
357
354
348
347
345
340
337
335
332
332
331
332
333
334
336
336
340
343
348
353
360
363
369
374
376
375
373
368
362
355
345
339
331
326
323
322
323
326
331
335
337
341
341
340
336
334
327
321
318
315
316
320
327
336
345
354
360
366
367
366
362
354
343
335
326
318
313
313
316
323
331
338
345
349
350
348
343
336
328
322
315
312
313
316
323
331
338
345
349
350
352
350
346
341
336
331
327
326
327
331
335
341
345
347
348
346
343
337
331
326
321
317
315
317
320
325
333
340
347
354
358
361
360
355
349
343
337
332
332
335
340
348
357
363
370
374
373
369
363
353
345
338
333
331
333
336
341
346
350
353
354
352
347
341
333
325
319
315
314
318
325
333
342
352
359
365
368
366
363
358
351
343
338
333
333
337
341
348
353
356
358
358
352
347
339
329
320
313
307
305
308
314
322
331
341
350
357
362
362
360
354
343
335
325
318
311
310
310
314
320
326
333
337
338
337
332
325
316
309
302
296
298
301
306
315
324
330
337
339
337
330
322
311
300
293
289
291
299
309
322
334
343
347
347
341
332
320
306
293
283
278
278
285
296
310
325
339
349
357
359
357
353
346
337
328
320
317
315
317
322
329
336
341
345
345
342
337
330
321
314
308
306
305
307
312
317
323
328
330
329
324
313
299
281
261
242
225
217
215
222
236
254
277
297
313
322
324
317
303
282
259
237
218
205
200
202
209
221
236
247
257
264
267
267
263
258
254
251
251
253
257
262
266
268
265
258
247
233
215
195
180
165
157
158
168
190
221
256
296
334
367
394
415
428
436
440
440
441
443
448
456
464
472
481
485
482
473
458
436
411
384
357
332
317
309
308
315
327
342
356
366
369
366
357
343
327
311
297
288
285
290
303
322
345
368
389
404
413
415
410
400
385
374
364
358
361
370
385
402
417
431
440
443
442
438
429
420
413
409
412
421
437
457
481
503
526
542
550
551
545
533
515
499
484
476
475
482
495
512
528
538
543
542
535
524
511
493
476
462
453
452
461
474
491
503
504
490
463
